# freq, I e Q
5787440000	-0.0453991789999999978	0.33439722970000002
5787490000	-0.0430512185000000019	0.3354529329
5787540000	-0.0382634497000000004	0.335900586499999987
5787590000	-0.033163355999999998	0.336702050400000008
5787640000	-0.0293885558000000005	0.336049319299999982
5787690000	-0.0253253737999999985	0.336569945699999984
5787740000	-0.0217020601	0.337108614899999992
5787790000	-0.0167427922999999999	0.337715837399999996
5787840000	-0.0127113120000000007	0.338152400299999989
5787890000	-0.00877072630000000006	0.337882169600000004
5787940000	-0.00419781889999999974	0.338791460799999999
5787990000	0.000322053799999999989	0.338960451100000004
5788040000	0.0045365624000000002	0.338306972900000003
5788090000	0.00902639799999999971	0.340351229300000002
5788140000	0.0129351624999999998	0.337713123100000012
5788190000	0.0173427402999999994	0.338767393199999989
5788240000	0.0219382987000000008	0.339561324300000023
5788290000	0.0257492741999999983	0.338255402799999993
5788340000	0.0304398567000000002	0.338193245099999984
5788390000	0.0342674263000000007	0.337755523999999974
5788440000	0.0395080443000000031	0.336822917900000018
5788490000	0.0430896656000000003	0.337232624500000022
5788540000	0.0475943185999999976	0.336179479399999981
5788590000	0.0512539906000000003	0.335127577499999996
5788640000	0.0566751488999999997	0.334784732299999999
5788690000	0.0597132335999999986	0.335653322099999984
5788740000	0.0642634901999999952	0.333830486599999976
5788790000	0.0675998082999999944	0.333040799499999984
5788840000	0.0728727017000000005	0.332122580700000003
5788890000	0.0766216276000000057	0.331908429200000021
5788940000	0.0809358948999999994	0.330248714599999993
5788990000	0.0851970925000000018	0.329284103100000003
5789040000	0.0893187565999999933	0.328014907000000022
5789090000	0.0948207266000000021	0.327067649399999993
5789140000	0.0979803176000000053	0.326857549299999994
5789190000	0.103006453799999995	0.324974510800000005
5789240000	0.105241278199999996	0.324523388999999995
5789290000	0.110172340499999993	0.322579765199999979
5789340000	0.114770092599999998	0.320985704599999977
5789390000	0.118891493200000004	0.319591310299999987
5789440000	0.1238427265	0.319001534099999984
5789490000	0.125814919899999988	0.317540793200000004
5789540000	0.130846361699999997	0.315276402499999997
5789590000	0.134332786399999987	0.313871215300000006
5789640000	0.137594883499999987	0.311322427800000023
5789690000	0.142598944799999988	0.310042579400000018
5789740000	0.14666647490000001	0.308755465800000017
5789790000	0.150744913199999997	0.306090400200000001
5789840000	0.153778027300000009	0.306081816399999984
5789890000	0.157753923800000001	0.305126123299999996
5789940000	0.162694137500000002	0.300748297100000006
5789990000	0.16588565999999999	0.299811102200000013
5790040000	0.170094047599999992	0.298067706900000007
5790090000	0.172920528800000001	0.294794342499999973
5790140000	0.176724521899999987	0.293322019300000014
5790190000	0.181633027800000013	0.290991969399999995
5790240000	0.186199429899999991	0.288224449900000013
5790290000	0.188487503599999995	0.286587977800000004
5790340000	0.192120255299999987	0.283463229099999992
5790390000	0.19552465690000001	0.281858233600000008
5790440000	0.198908748200000013	0.279241250800000007
5790490000	0.203213389900000013	0.277373059600000027
5790540000	0.206288181200000004	0.274086192499999992
5790590000	0.211522164200000001	0.272122749399999975
5790640000	0.213335501799999994	0.267727771999999975
5790690000	0.216925661200000008	0.266155940899999999
5790740000	0.220599973499999991	0.263635592099999982
5790790000	0.224127976400000012	0.260741380000000023
5790840000	0.227502972100000006	0.257948814999999998
5790890000	0.231109492700000002	0.25497771629999999
5790940000	0.234511580500000011	0.251588799899999993
5790990000	0.238380928299999989	0.24999555879999999
5791040000	0.239161402100000003	0.246949511499999996
5791090000	0.244182210700000013	0.244321985600000013
5791140000	0.247056154500000014	0.240981364000000003
5791190000	0.2492193885	0.238359585699999987
5791240000	0.253900831599999988	0.233942126700000003
5791290000	0.257059906800000015	0.231278963300000001
5791340000	0.258660063699999998	0.227362333199999989
5791390000	0.262349794000000025	0.224685282200000003
5791440000	0.265043550800000027	0.220604103400000001
5791490000	0.266701840099999976	0.218254966299999992
5791540000	0.270285357599999998	0.215139376100000002
5791590000	0.273263045300000007	0.210442730999999994
5791640000	0.276241260099999997	0.206973232199999996
5791690000	0.27959071499999999	0.203508124900000004
5791740000	0.28211315549999999	0.200431513100000014
5791790000	0.283877325000000014	0.195895794900000003
5791840000	0.287262387900000027	0.194515300800000013
5791890000	0.289060047699999989	0.190328909099999999
5791940000	0.290867395699999975	0.186876939900000011
5791990000	0.293236976599999977	0.182931300600000013
5792040000	0.295423452600000025	0.178876548699999999
5792090000	0.298745044899999979	0.175718281599999998
5792140000	0.300624368099999983	0.172480446799999992
5792190000	0.303217457600000018	0.168956754799999997
5792240000	0.305392994400000006	0.164309377799999989
5792290000	0.307799235299999974	0.160315580399999991
5792340000	0.309947714799999996	0.15520228459999999
5792390000	0.31244729269999999	0.151857922300000003
5792440000	0.313596366199999976	0.146789180500000005
5792490000	0.315379020299999979	0.143152670399999987
5792540000	0.317385306300000003	0.140640102200000006
5792590000	0.319917959199999991	0.136020660200000004
5792640000	0.320769760199999976	0.132406948400000002
5792690000	0.322387364999999981	0.12895868969999999
5792740000	0.325166873099999976	0.124087607000000003
5792790000	0.326242272900000019	0.118941613400000007
5792840000	0.327071709099999997	0.115604533499999995
5792890000	0.328611143900000013	0.112059103899999998
5792940000	0.330831213199999974	0.107006947800000002
5792990000	0.332674115499999978	0.103485097700000001
5793040000	0.332210206600000002	0.0986183600000000021
5793090000	0.334866736599999992	0.094749418299999999
5793140000	0.336896071399999997	0.0902710176000000031
5793190000	0.337684287600000022	0.0862933285999999966
5793240000	0.339838182300000013	0.0813803617999999951
5793290000	0.338633339799999988	0.078597229099999999
5793340000	0.341693866800000023	0.0731610711999999969
5793390000	0.342917664700000013	0.068331878400000004
5793440000	0.343158119400000017	0.0641898162999999938
5793490000	0.343739028300000027	0.0603802589999999986
5793540000	0.344150635099999991	0.0558790454000000006
5793590000	0.345592771999999993	0.0520663341000000002
5793640000	0.346007320800000018	0.0466348657
5793690000	0.346257883099999997	0.0420893156000000032
5793740000	0.346961604099999987	0.0381574833999999974
5793790000	0.347132571300000026	0.0329496348000000022
5793840000	0.348154341599999972	0.0296970712000000012
5793890000	0.348830519299999975	0.0244824072000000004
5793940000	0.349598260100000002	0.0203796143999999992
5793990000	0.348366714099999975	0.0161685818000000016
5794040000	0.348955672800000005	0.0120232321999999992
5794090000	0.349963907700000021	0.00664062430000000002
5794140000	0.349689377299999993	0.0020153069
5794190000	0.350673316999999984	-0.00237984830000000005
5794240000	0.349391379700000004	-0.0078851111999999994
5794290000	0.349613988300000011	-0.0115979828
5794340000	0.350166904000000001	-0.0155762387999999995
5794390000	0.34944476670000002	-0.0200732828999999995
5794440000	0.349152785799999976	-0.025122973199999999
5794490000	0.349934243199999995	-0.0286016769000000011
5794540000	0.348224190499999975	-0.0328755754000000025
5794590000	0.347883743500000009	-0.0387235362999999999
5794640000	0.347436887600000022	-0.0426594579999999973
5794690000	0.348843373199999973	-0.0465187656999999991
5794740000	0.347074744699999993	-0.0513399365000000024
5794790000	0.347493231999999985	-0.0557331449999999978
5794840000	0.345094328399999983	-0.0612294852000000028
5794890000	0.344539785900000006	-0.0640493250999999986
5794940000	0.344969414500000016	-0.0679830661000000031
5794990000	0.342560850699999975	-0.0740293954999999976
5795040000	0.342442128700000015	-0.078148015799999998
5795090000	0.342136814299999981	-0.0819107087999999955
5795140000	0.339969007699999992	-0.0868953568000000037
5795190000	0.338836261199999988	-0.0915185869999999985
5795240000	0.338609611899999996	-0.096375422500000002
5795290000	0.337349555400000001	-0.100367991000000004
5795340000	0.337114936199999993	-0.103686955799999994
5795390000	0.335415263100000027	-0.109055767999999997
5795440000	0.333218335600000026	-0.112059461299999996
5795490000	0.333058984800000013	-0.117579836699999996
5795540000	0.330427338700000017	-0.121499931199999994
5795590000	0.328880407900000005	-0.126471430299999993
5795640000	0.327310374399999993	-0.129821124199999999
5795690000	0.325910848500000017	-0.134037244199999989
5795740000	0.323151726899999991	-0.139176637500000006
5795790000	0.321132521299999973	-0.143052118899999997
5795840000	0.319273861800000003	-0.147956399900000007
5795890000	0.318714430800000004	-0.151583914300000011
5795940000	0.316083169399999975	-0.154898417199999999
5795990000	0.314595559999999996	-0.1586709647
5796040000	0.3116083563	-0.163772183999999987
5796090000	0.310993670599999994	-0.167446729900000008
5796140000	0.308578572399999973	-0.170980621700000002
5796190000	0.306779921899999974	-0.174940363999999987
5796240000	0.304168310599999991	-0.180644185699999987
5796290000	0.302095152500000019	-0.183272887800000006
5796340000	0.298836609099999984	-0.186253116800000007
5796390000	0.297452985299999972	-0.189726699700000001
5796440000	0.294171802099999991	-0.194109264799999987
5796490000	0.291917874899999985	-0.198560051300000012
5796540000	0.289559365199999974	-0.201311234400000011
5796590000	0.286558425999999977	-0.206485456799999995
5796640000	0.284643526500000021	-0.210502292000000008
5796690000	0.282256160799999989	-0.212335661000000009
5796740000	0.279736805199999994	-0.217296509400000004
5796790000	0.275291755299999996	-0.221072788900000011
5796840000	0.273051926100000009	-0.225774439800000004
5796890000	0.2701524857	-0.225622127700000008
5796940000	0.26848524800000001	-0.230993318800000014
5796990000	0.264272566300000011	-0.234933032799999997
5797040000	0.261471644299999972	-0.237657653800000007
5797090000	0.259099069999999987	-0.24237422010000001
5797140000	0.25555705350000002	-0.243865588900000013
5797190000	0.253722186399999994	-0.248580393199999999
5797240000	0.249375383700000008	-0.250539722500000006
5797290000	0.245214469099999999	-0.25331196039999998
5797340000	0.242958069299999996	-0.257667527100000016
5797390000	0.2396596426	-0.259896435300000006
5797440000	0.235281849600000009	-0.262587306899999984
5797490000	0.233537330500000001	-0.267260132300000008
5797540000	0.229386078699999996	-0.270532352300000001
5797590000	0.225154726899999991	-0.272592704000000019
5797640000	0.223347083400000007	-0.27647110359999999
5797690000	0.21927451810000001	-0.278991051699999992
5797740000	0.215873235699999999	-0.280744243599999999
5797790000	0.212740145699999994	-0.284908511600000025
5797840000	0.208009747100000003	-0.286696253299999981
5797890000	0.204984393699999989	-0.290138676900000003
5797940000	0.200372287199999999	-0.293062426699999989
5797990000	0.19767235050000001	-0.296352303400000017
5798040000	0.193464420100000006	-0.29751275319999998
5798090000	0.189556277699999998	-0.300533380000000017
5798140000	0.184836018099999999	-0.303348126300000021
5798190000	0.181332882700000003	-0.305515543900000019
5798240000	0.176767514799999997	-0.30687182759999998
5798290000	0.173755912600000006	-0.310383517300000022
5798340000	0.168774757999999997	-0.312295413500000008
5798390000	0.166368952099999995	-0.314702606800000007
5798440000	0.162462540200000005	-0.316306590900000018
5798490000	0.156904413699999995	-0.317821790900000012
5798540000	0.154132415800000006	-0.319611767800000002
5798590000	0.149145354600000002	-0.321688188400000019
5798640000	0.14605742129999999	-0.324525358500000027
5798690000	0.14117210329999999	-0.325830366199999999
5798740000	0.137246567200000003	-0.328243981100000026
5798790000	0.132943440299999993	-0.330643197499999986
5798840000	0.128963762700000012	-0.331288725800000017
5798890000	0.124305022599999995	-0.333366009399999996
5798940000	0.120267319100000006	-0.335423010799999977
5798990000	0.115374323799999998	-0.336401928299999986
5799040000	0.111963949199999996	-0.339047559499999984
5799090000	0.106850659900000006	-0.338915239500000021
5799140000	0.102617838599999997	-0.34138116730000001
5799190000	0.0979391919	-0.341936016999999981
5799240000	0.0929714398999999941	-0.343953465299999983
5799290000	0.0880916432999999943	-0.345596026599999995
5799340000	0.0840408641000000012	-0.345551294100000017
5799390000	0.0800434948000000035	-0.347413130700000017
5799440000	0.0764153268000000024	-0.348947928399999996
5799490000	0.0709998829999999997	-0.350580003699999976
5799540000	0.067667096600000004	-0.350612968999999997
5799590000	0.0615810929000000021	-0.35047802950000001
5799640000	0.0579482784999999986	-0.353332329999999972
5799690000	0.0522162830999999966	-0.35246530650000002
5799740000	0.0479979125000000034	-0.353430368699999997
5799790000	0.0443902644999999985	-0.353930011300000014
5799840000	0.0398695607000000007	-0.355131614900000003
5799890000	0.0349085217000000003	-0.355267288600000009
5799940000	0.0309357409999999992	-0.35585974640000001
5799990000	0.0263868747000000001	-0.355016951700000027
5800040000	0.0205819718999999991	-0.355971180900000017
5800090000	0.0158316293000000004	-0.356989619500000022
5800140000	0.0117883242999999999	-0.356684410900000026
5800190000	0.00726156319999999959	-0.357386103200000027
5800240000	0.0026132477000000002	-0.356949449099999983
5800290000	-0.00235309960000000019	-0.357634695700000005
5800340000	-0.00673981349999999962	-0.358301135699999995
5800390000	-0.0106973814000000007	-0.357792857899999983
5800440000	-0.0159385587999999988	-0.357659389400000027
5800490000	-0.0207069868999999983	-0.357194704799999985
5800540000	-0.025032547799999999	-0.35613902380000001
5800590000	-0.0306974129999999998	-0.35667042929999998
5800640000	-0.0342708444000000001	-0.356021509999999985
5800690000	-0.040373664699999999	-0.355058028000000026
5800740000	-0.0435520845999999989	-0.355682723899999997
5800790000	-0.0486527494000000005	-0.353908321000000026
5800840000	-0.0513897746000000002	-0.353216127499999977
5800890000	-0.0573939996000000022	-0.353461865099999994
5800940000	-0.0620057539000000019	-0.352993203300000002
5800990000	-0.0657204826000000047	-0.351254008000000006
5801040000	-0.0711193814999999951	-0.351032188600000017
5801090000	-0.0754682052999999936	-0.349099082000000005
5801140000	-0.0797994880999999961	-0.348822667600000025
5801190000	-0.0849858252000000036	-0.34843870170000002
5801240000	-0.088890627599999994	-0.346691362599999997
5801290000	-0.0935984229000000056	-0.345667983800000023
5801340000	-0.0969751184999999988	-0.344942750999999992
5801390000	-0.101497597600000003	-0.342491959700000015
5801440000	-0.106421147899999999	-0.343042963699999981
5801490000	-0.1108905434	-0.340293461399999997
5801540000	-0.1159911993	-0.339394698100000003
5801590000	-0.120109391499999996	-0.338523888100000003
5801640000	-0.124230520400000002	-0.33546468639999999
5801690000	-0.128849198999999998	-0.335317279299999993
5801740000	-0.132530355300000013	-0.332441544099999986
5801790000	-0.13897654009999999	-0.331834765500000017
5801840000	-0.141317174800000001	-0.330238627700000009
5801890000	-0.14587478470000001	-0.327861813000000002
5801940000	-0.150410883800000006	-0.325972778600000013
5801990000	-0.15503474510000001	-0.323376406200000022
5802040000	-0.159323386399999989	-0.321869883000000023
5802090000	-0.162462314100000005	-0.319791550400000013
5802140000	-0.168137663999999992	-0.318627988799999984
5802190000	-0.170442109400000014	-0.314402170500000022
5802240000	-0.174210687599999997	-0.313292636100000021
5802290000	-0.179295204399999991	-0.311298367399999998
5802340000	-0.18398557330000001	-0.308052040600000021
5802390000	-0.188510202799999999	-0.305529364299999995
5802440000	-0.19164243110000001	-0.304204415399999983
5802490000	-0.195415585499999989	-0.300802466699999993
5802540000	-0.199379190699999986	-0.298902757299999988
5802590000	-0.204683688100000011	-0.295998965599999997
5802640000	-0.206919644699999988	-0.293799038700000015
5802690000	-0.210900506300000012	-0.290867182000000002
5802740000	-0.214973666899999999	-0.288077965400000024
5802790000	-0.219123525799999996	-0.285875034299999997
5802840000	-0.222034895799999993	-0.282418636800000011
5802890000	-0.225328705900000009	-0.279299492199999999
5802940000	-0.229021500399999994	-0.276958337100000007
5802990000	-0.233772186999999992	-0.273032200000000003
5803040000	-0.237214426300000003	-0.270489263099999988
5803090000	-0.240176117599999989	-0.267153459799999993
5803140000	-0.245061876200000001	-0.264515130499999973
5803190000	-0.247927454699999994	-0.261015779499999989
5803240000	-0.250771578200000012	-0.258500237899999985
5803290000	-0.254455328400000014	-0.254697078700000024
5803340000	-0.257422124500000016	-0.251303388800000027
5803390000	-0.260380126900000008	-0.247494863399999987
5803440000	-0.263065488299999983	-0.244245245100000008
5803490000	-0.266362436799999991	-0.241855784600000012
5803540000	-0.269472627099999973	-0.237589734999999996
5803590000	-0.274330780499999982	-0.233450600199999997
5803640000	-0.27682467999999999	-0.23161868129999999
5803690000	-0.279604696300000011	-0.227270056599999992
5803740000	-0.282134145900000022	-0.222999281100000002
5803790000	-0.286265914600000004	-0.219457875299999994
5803840000	-0.288662654700000021	-0.215679182500000011
5803890000	-0.29178924610000001	-0.212208411499999999
5803940000	-0.293988499100000023	-0.208615458799999987
5803990000	-0.295936436299999994	-0.204984883700000009
5804040000	-0.298610494900000023	-0.200884426100000013
5804090000	-0.301907483699999979	-0.196005720299999991
5804140000	-0.304243526799999997	-0.192484903900000004
5804190000	-0.307062880599999977	-0.189877747399999991
5804240000	-0.308329283899999973	-0.1843301839
5804290000	-0.312759802199999992	-0.180613017999999986
5804340000	-0.313981833200000005	-0.176446992699999999
5804390000	-0.316029010399999977	-0.172296588199999989
5804440000	-0.31986412879999998	-0.169092746500000002
5804490000	-0.320870680999999991	-0.163867887800000001
5804540000	-0.322278819100000002	-0.160530805100000007
5804590000	-0.324566887500000012	-0.156965750799999998
5804640000	-0.327459465100000013	-0.15151117280000001
5804690000	-0.329879164999999974	-0.147895216299999993
5804740000	-0.330371496699999989	-0.142716293399999999
5804790000	-0.332496872200000015	-0.139565696900000008
5804840000	-0.334095716499999973	-0.134327252199999997
5804890000	-0.336695348700000008	-0.130561780799999999
5804940000	-0.337252903400000026	-0.126939357199999991
5804990000	-0.340482077300000019	-0.121269104700000005
5805040000	-0.341102696500000024	-0.116006666899999999
5805090000	-0.342829273800000001	-0.1124960074
5805140000	-0.345227876900000008	-0.106535594400000003
5805190000	-0.345669885899999973	-0.1037314508
5805240000	-0.347953680499999973	-0.0991096203000000064
5805290000	-0.349758453899999988	-0.0943430752999999955
5805340000	-0.349654655199999997	-0.0894311467999999998
5805390000	-0.350988384200000003	-0.0848920321999999949
5805440000	-0.351718096199999997	-0.0797187293999999935
5805490000	-0.35374878609999999	-0.0754225622000000012
5805540000	-0.354596071000000013	-0.0714965758999999978
5805590000	-0.355357064399999978	-0.0659959620999999996
5805640000	-0.35616399059999998	-0.0613557413999999968
5805690000	-0.357839808799999992	-0.0567872967999999978
5805740000	-0.359014014599999987	-0.0526663839000000022
5805790000	-0.359282367400000024	-0.0466151735000000025
5805840000	-0.35860160029999999	-0.0429439241999999971
5805890000	-0.361381626499999997	-0.0384614512999999977
5805940000	-0.360356328499999989	-0.0333087805999999972
