# freq, I e Q
5787440000	-0.0486440064000000019	0.33461978819999999
5787490000	-0.0461655119999999988	0.335331011299999981
5787540000	-0.0376190003999999981	0.334328132499999986
5787590000	-0.0338533545000000019	0.336087389700000017
5787640000	-0.0287961220000000004	0.336390937200000018
5787690000	-0.0270337000000000008	0.336095506200000005
5787740000	-0.0210658223999999998	0.337322371700000012
5787790000	-0.0183809756999999997	0.337938215799999997
5787840000	-0.0144424064999999994	0.338050656599999999
5787890000	-0.00999590669999999952	0.338906532300000007
5787940000	-0.00663334429999999989	0.339788432899999993
5787990000	-0.000662639400000000051	0.33833974859999999
5788040000	0.00297091080000000006	0.340152077800000008
5788090000	0.00680944629999999992	0.3378727802
5788140000	0.0108914761999999998	0.338570359499999973
5788190000	0.0157565534000000014	0.340080902500000004
5788240000	0.0205686661999999985	0.338137612899999995
5788290000	0.0243942940000000004	0.33705290269999999
5788340000	0.0298321871000000009	0.336856671499999982
5788390000	0.0340201014999999968	0.336911642800000022
5788440000	0.0380506425999999967	0.335759838300000002
5788490000	0.0415573438000000003	0.339717521199999983
5788540000	0.0466594255999999985	0.33691229210000001
5788590000	0.0512593022999999967	0.334211986800000027
5788640000	0.0559004687999999986	0.33468999490000001
5788690000	0.0594319632	0.335437518599999984
5788740000	0.0617482822999999986	0.335227138199999997
5788790000	0.0655762099999999959	0.336001676699999974
5788840000	0.0722673439000000029	0.33048074719999998
5788890000	0.075206205799999995	0.33177959880000002
5788940000	0.0803500996000000023	0.329126240100000023
5788990000	0.0842208217999999981	0.329224045999999992
5789040000	0.0892152883000000008	0.329031351500000013
5789090000	0.0914687534999999996	0.327878294199999976
5789140000	0.0954648156999999969	0.326160613499999974
5789190000	0.101261820700000005	0.325737201099999985
5789240000	0.102063375400000003	0.324760109999999991
5789290000	0.109837154699999995	0.324354157400000009
5789340000	0.111916660099999996	0.320692056999999975
5789390000	0.117596959799999998	0.318251076000000022
5789440000	0.121177365699999998	0.319249399099999998
5789490000	0.124259174200000003	0.314448876799999999
5789540000	0.131526749700000001	0.315722911100000003
5789590000	0.133114018899999992	0.313340605800000005
5789640000	0.13666261930000001	0.314239665200000018
5789690000	0.142156568300000008	0.310063537100000008
5789740000	0.145881015400000008	0.309184631499999973
5789790000	0.150758020500000006	0.306522217200000002
5789840000	0.153004759200000007	0.306945403299999975
5789890000	0.157920797599999996	0.304334473900000013
5789940000	0.163035252800000002	0.304608500000000004
5789990000	0.164032838900000005	0.300695714800000014
5790040000	0.170177015399999992	0.298455423800000008
5790090000	0.172620077799999994	0.295545204499999992
5790140000	0.176820992499999996	0.294539007000000019
5790190000	0.180370321899999991	0.291659778500000022
5790240000	0.1839071387	0.288765694500000003
5790290000	0.1867488447	0.285723761799999976
5790340000	0.193948343100000004	0.282189538600000012
5790390000	0.195735895900000012	0.280813428899999995
5790440000	0.197293395799999993	0.278695186699999986
5790490000	0.203755585099999997	0.278158375299999983
5790540000	0.2064144007	0.273913266400000022
5790590000	0.211276773700000003	0.271770701700000006
5790640000	0.212447075399999991	0.269677882400000013
5790690000	0.217563939399999989	0.2673424197
5790740000	0.221169887199999998	0.263514188400000016
5790790000	0.222529089600000007	0.262581554399999972
5790840000	0.224248596999999994	0.258465290000000014
5790890000	0.229343077300000003	0.255415148300000006
5790940000	0.235217252099999996	0.253602551399999987
5790990000	0.23674651490000001	0.249910715499999991
5791040000	0.239338809499999999	0.244990143299999991
5791090000	0.242203993400000012	0.243399650699999998
5791140000	0.245195443699999988	0.240159421399999989
5791190000	0.250097603499999988	0.237712621200000002
5791240000	0.252584916599999987	0.234611138400000002
5791290000	0.257551213700000003	0.230346011200000006
5791340000	0.2580311354	0.228667817699999998
5791390000	0.263434614299999981	0.223648710700000003
5791440000	0.264742026700000022	0.222067257099999998
5791490000	0.266449069500000024	0.21923053910000001
5791540000	0.270213371899999999	0.214412763099999987
5791590000	0.273201003499999984	0.209510962699999997
5791640000	0.276761465099999993	0.207151956800000009
5791690000	0.278781231000000018	0.205598823799999997
5791740000	0.280658748999999985	0.199690226400000004
5791790000	0.284604842400000002	0.197413828000000013
5791840000	0.286838463300000013	0.194392414900000005
5791890000	0.2882286617	0.1913424185
5791940000	0.289837671399999997	0.186606306999999999
5791990000	0.292740899499999985	0.184582717000000007
5792040000	0.295298952100000012	0.180040132399999997
5792090000	0.29826085699999999	0.175962022999999995
5792140000	0.300558626800000006	0.172353306600000006
5792190000	0.306328725899999987	0.168753891900000008
5792240000	0.303804859400000016	0.164605187200000003
5792290000	0.307045850299999978	0.161401665599999994
5792340000	0.308533166400000003	0.155452458900000007
5792390000	0.311231095800000024	0.152776946999999996
5792440000	0.314033807700000001	0.148382162399999989
5792490000	0.315070785099999973	0.143837633200000009
5792540000	0.315376321299999984	0.142043080900000007
5792590000	0.318003867100000004	0.136621150599999991
5792640000	0.319954034300000023	0.133187801999999994
5792690000	0.323148900199999978	0.128145213199999997
5792740000	0.326238832899999998	0.12680378140000001
5792790000	0.324817425800000004	0.120842450399999995
5792840000	0.327707534099999975	0.115992167500000007
5792890000	0.328681873199999974	0.112534703099999994
5792940000	0.330030380299999981	0.105040401199999994
5792990000	0.330454340600000007	0.104514306799999998
5793040000	0.33348109749999999	0.100372510700000001
5793090000	0.332624960099999978	0.094245561699999994
5793140000	0.337976952300000022	0.0905097898999999984
5793190000	0.33710397780000001	0.0862897524000000027
5793240000	0.339735218000000005	0.0834072396000000021
5793290000	0.337379008799999991	0.0766105095000000069
5793340000	0.33995174789999999	0.0723607260000000002
5793390000	0.341798156099999972	0.0718409849999999961
5793440000	0.343042913399999982	0.0647795099999999985
5793490000	0.344826657799999992	0.0596136578999999986
5793540000	0.342471466800000013	0.0568383749999999965
5793590000	0.344265803799999992	0.0523886182000000006
5793640000	0.345362042799999991	0.0451705774000000018
5793690000	0.346448851999999974	0.0431060977999999997
5793740000	0.347474799599999995	0.0379237979000000003
5793790000	0.347701881200000007	0.0350292207999999966
5793840000	0.347262059499999998	0.0310605569000000012
5793890000	0.34844171169999999	0.0242999253999999984
5793940000	0.347531195899999978	0.0213485241999999999
5793990000	0.349661937400000011	0.0179094826999999998
5794040000	0.350353226100000026	0.0100865959999999998
5794090000	0.350054893500000019	0.00801672600000000006
5794140000	0.351978300700000024	0.0037120956000000001
5794190000	0.348489517000000026	-0.00084058519999999999
5794240000	0.351363687300000005	-0.0054016063000000003
5794290000	0.349866917200000016	-0.0125663027000000004
5794340000	0.350173689899999974	-0.0143324877999999999
5794390000	0.348175282799999986	-0.0195562752999999985
5794440000	0.348710704900000001	-0.0225012277999999989
5794490000	0.348952884399999996	-0.0282170056000000009
5794540000	0.348437866500000026	-0.0331939793000000025
5794590000	0.348840847999999981	-0.0360776100999999974
5794640000	0.348555928600000009	-0.041349224900000002
5794690000	0.347491732499999983	-0.0445450311000000002
5794740000	0.345553705599999983	-0.050079465400000002
5794790000	0.345788017299999972	-0.0553281861999999972
5794840000	0.345037867100000006	-0.0573479579000000031
5794890000	0.343665017100000025	-0.0656055326999999966
5794940000	0.342766220999999982	-0.0693832959999999971
5794990000	0.34417188999999998	-0.074447555700000001
5795040000	0.342940930300000002	-0.0753059846000000005
5795090000	0.340488683399999992	-0.082852100299999995
5795140000	0.342028996299999999	-0.0843417513000000035
5795190000	0.340226122999999991	-0.090615060499999997
5795240000	0.337820820000000022	-0.0931915286000000037
5795290000	0.337520462799999976	-0.0999866003000000059
5795340000	0.336593364200000023	-0.103494982999999999
5795390000	0.335248381799999995	-0.109784258600000004
5795440000	0.332765115200000017	-0.112405105699999994
5795490000	0.331275039599999988	-0.116199927100000003
5795540000	0.329658971500000009	-0.120281182700000003
5795590000	0.32988088539999999	-0.124742292099999999
5795640000	0.327332841400000019	-0.129922118899999994
5795690000	0.324303994900000003	-0.132878995
5795740000	0.325603112099999981	-0.137669056200000001
5795790000	0.321907541500000005	-0.141152108199999987
5795840000	0.319059642899999996	-0.1444940153
5795890000	0.319064968100000013	-0.149945487900000007
5795940000	0.318343336300000002	-0.154692956999999992
5795990000	0.315139324599999993	-0.158208048399999995
5796040000	0.311976055799999985	-0.160827819900000002
5796090000	0.30987200840000001	-0.167161889400000013
5796140000	0.308879087499999982	-0.169598365599999995
5796190000	0.306037469700000009	-0.17484809770000001
5796240000	0.304594091499999997	-0.178583371699999993
5796290000	0.3015125944	-0.181515496999999998
5796340000	0.299650618899999999	-0.186662159900000013
5796390000	0.294925430099999997	-0.188606847299999991
5796440000	0.29420880290000001	-0.192788446199999991
5796490000	0.293500442899999991	-0.198600395900000004
5796540000	0.289990405900000026	-0.200804753000000002
5796590000	0.285342001000000012	-0.204234231399999994
5796640000	0.286064504300000022	-0.207674877899999999
5796690000	0.282696759399999997	-0.212247930299999998
5796740000	0.277862349499999994	-0.214434873199999987
5796790000	0.278560787799999987	-0.219607460700000007
5796840000	0.274183523500000026	-0.223640482299999999
5796890000	0.271643707199999973	-0.226880861699999992
5796940000	0.267866196499999987	-0.230196575600000009
5796990000	0.266262389900000007	-0.234261703799999998
5797040000	0.262246604100000003	-0.236680907699999998
5797090000	0.257532464800000027	-0.23915448110000001
5797140000	0.255990072700000015	-0.244581400300000001
5797190000	0.252644747599999997	-0.246870119299999996
5797240000	0.249697567499999995	-0.251072136300000026
5797290000	0.248111848999999995	-0.253349256899999986
5797340000	0.241674626400000009	-0.258342594400000014
5797390000	0.241665865000000007	-0.260718554599999985
5797440000	0.237499110499999999	-0.264182694800000006
5797490000	0.234448803600000005	-0.265531385200000025
5797540000	0.230787423900000011	-0.268792653599999987
5797590000	0.228737763199999999	-0.270624429599999994
5797640000	0.224004848400000012	-0.273837580600000019
5797690000	0.219754958400000006	-0.2777670156
5797740000	0.216616737000000004	-0.280775791499999983
5797790000	0.210857178899999997	-0.283318042300000017
5797840000	0.207848930799999998	-0.28423044489999999
5797890000	0.20637748219999999	-0.289374576200000011
5797940000	0.201560984100000007	-0.292777401300000018
5797990000	0.198880446799999999	-0.296029531100000021
5798040000	0.193453127499999988	-0.296122492800000026
5798090000	0.190097314200000006	-0.299918924199999992
5798140000	0.188440201599999996	-0.302115181399999988
5798190000	0.184010005899999995	-0.303915873399999981
5798240000	0.178901266100000012	-0.306148628899999997
5798290000	0.175710539500000013	-0.310312015100000005
5798340000	0.16876294859999999	-0.311867441799999978
5798390000	0.167769411000000007	-0.315724979399999994
5798440000	0.163029238100000001	-0.313065320799999991
5798490000	0.156587176800000005	-0.319838912799999986
5798540000	0.154066863599999992	-0.319620287200000019
5798590000	0.148728260400000006	-0.322347406100000011
5798640000	0.144552350999999996	-0.323252122099999983
5798690000	0.14088743170000001	-0.325550913399999975
5798740000	0.137734151100000007	-0.326375874499999996
5798790000	0.1334916357	-0.328267234399999996
5798840000	0.129093715500000011	-0.329007297300000001
5798890000	0.126141576199999994	-0.331482004300000022
5798940000	0.119548080500000001	-0.333751828699999975
5798990000	0.116242823100000003	-0.33546764870000001
5799040000	0.111040527799999997	-0.338549663200000017
5799090000	0.108102247900000004	-0.340733327500000016
5799140000	0.102441245400000006	-0.339471239199999997
5799190000	0.098688538199999995	-0.340838899099999981
5799240000	0.0954229595000000014	-0.342955428100000015
5799290000	0.0897743317999999957	-0.344285112200000021
5799340000	0.0848966755999999989	-0.346550639300000018
5799390000	0.0819187006000000051	-0.347012589799999993
5799440000	0.0781737133999999972	-0.347564096900000008
5799490000	0.0725710442999999983	-0.347608948500000015
5799540000	0.0684678878000000019	-0.351482350700000001
5799590000	0.0636324258000000031	-0.351785287499999988
5799640000	0.0574909005999999986	-0.351970973899999984
5799690000	0.0534638476000000029	-0.350958607300000003
5799740000	0.0500332136000000011	-0.353215071900000011
5799790000	0.0463853383000000022	-0.353384073999999992
5799840000	0.0404771661999999977	-0.352835860499999987
5799890000	0.0365896584000000025	-0.355101278899999984
5799940000	0.032966752600000003	-0.355753022600000024
5799990000	0.0253533994999999984	-0.356266633399999977
5800040000	0.0218330730999999993	-0.356437798699999975
5800090000	0.0185553273000000005	-0.356373266999999994
5800140000	0.0112193181999999999	-0.357508791900000011
5800190000	0.0089475726000000002	-0.356521706699999996
5800240000	0.00475416850000000019	-0.357440505100000028
5800290000	0.000745186199999999964	-0.354110597299999996
5800340000	-0.00538034190000000016	-0.356113753799999988
5800390000	-0.0118480845999999994	-0.355836887599999985
5800440000	-0.0169094098000000005	-0.354052888200000027
5800490000	-0.0188302457000000013	-0.357795643499999982
5800540000	-0.0248336891000000004	-0.355570559000000008
5800590000	-0.0287066082999999986	-0.35756279470000002
5800640000	-0.0347772812000000028	-0.356311585400000019
5800690000	-0.038313087099999997	-0.356076851799999983
5800740000	-0.0415018784999999987	-0.356162987200000003
5800790000	-0.0468851924999999989	-0.354956379599999983
5800840000	-0.0511530834000000004	-0.353996585400000008
5800890000	-0.0546367980000000003	-0.353214193899999973
5800940000	-0.0583685603999999983	-0.353737377700000022
5800990000	-0.0651637327999999988	-0.352235823800000014
5801040000	-0.0702481744999999963	-0.350464143700000008
5801090000	-0.0736907885000000068	-0.349991843899999988
5801140000	-0.0780955611999999966	-0.351526038699999988
5801190000	-0.0840496144000000001	-0.347293878499999986
5801240000	-0.087494327100000005	-0.348034809800000011
5801290000	-0.0924998893999999933	-0.347290549599999998
5801340000	-0.097255757499999998	-0.345165676600000026
5801390000	-0.102122576399999998	-0.342353502400000009
5801440000	-0.106440122600000006	-0.339447202900000022
5801490000	-0.109902968500000003	-0.341680923099999978
5801540000	-0.114355088399999999	-0.338876266199999998
5801590000	-0.120067388600000005	-0.337569889999999984
5801640000	-0.124669847700000003	-0.335649276900000015
5801690000	-0.126994842999999996	-0.334835711400000013
5801740000	-0.132864685600000004	-0.332156522999999981
5801790000	-0.137484959099999998	-0.330591971500000026
5801840000	-0.141669270799999997	-0.3299914605
5801890000	-0.14272292880000001	-0.326651791199999986
5801940000	-0.151986235299999994	-0.326357670799999999
5801990000	-0.153219719000000004	-0.32214431440000002
5802040000	-0.158439750699999993	-0.32172823519999999
5802090000	-0.161454370600000008	-0.319192327499999984
5802140000	-0.165398585900000006	-0.318039378699999986
5802190000	-0.170673215200000006	-0.316593660900000018
5802240000	-0.175378992099999992	-0.3122668636
5802290000	-0.178707206499999993	-0.311950601200000011
5802340000	-0.180404948900000001	-0.310850218199999973
5802390000	-0.187453028599999988	-0.306623640199999992
5802440000	-0.191282295600000013	-0.305390850200000008
5802490000	-0.193178148299999991	-0.299372320000000025
5802540000	-0.198095880599999996	-0.299481044899999993
5802590000	-0.201724452599999993	-0.295092267500000005
5802640000	-0.203990549399999999	-0.292870324500000001
5802690000	-0.210408820699999999	-0.290374283499999997
5802740000	-0.212397722600000005	-0.286433236300000005
5802790000	-0.217673487299999996	-0.286073580100000002
5802840000	-0.223385544600000013	-0.283758919499999984
5802890000	-0.2266013214	-0.280686357599999992
5802940000	-0.227269347399999988	-0.277018028299999997
5802990000	-0.2334832607	-0.274359295499999989
5803040000	-0.235182411899999999	-0.271693422299999987
5803090000	-0.240437971899999992	-0.267282416799999978
5803140000	-0.24208018349999999	-0.2640775494
5803190000	-0.247047808400000013	-0.260284899999999986
5803240000	-0.250874209000000015	-0.258031329799999987
5803290000	-0.253843044999999989	-0.25500667199999999
5803340000	-0.256212461499999988	-0.252030474399999982
5803390000	-0.258690476000000003	-0.248585070999999991
5803440000	-0.263585458200000011	-0.243689280099999989
5803490000	-0.266210156099999984	-0.240617434200000008
5803540000	-0.2714906916	-0.238270452299999991
5803590000	-0.27224475720000002	-0.236399475100000006
5803640000	-0.277081689799999975	-0.231075319599999995
5803690000	-0.278392679400000009	-0.226459492200000001
5803740000	-0.280660803299999984	-0.223451798199999996
5803790000	-0.284503327199999989	-0.219485341899999992
5803840000	-0.286720753699999997	-0.216944729499999989
5803890000	-0.29153954809999999	-0.213312452799999996
5803940000	-0.292751606100000006	-0.209990341200000014
5803990000	-0.296394438199999999	-0.203032142100000007
5804040000	-0.298201925400000012	-0.202294653200000007
5804090000	-0.301023097000000017	-0.195371108999999987
5804140000	-0.30266105539999999	-0.191895517999999987
5804190000	-0.304578864599999999	-0.189280732099999988
5804240000	-0.307355850799999997	-0.185100270600000005
5804290000	-0.310707723599999985	-0.181976940700000006
5804340000	-0.313802270599999988	-0.179709859400000005
5804390000	-0.315832538800000007	-0.173527603199999991
5804440000	-0.317068159700000018	-0.168786427999999988
5804490000	-0.321441653699999996	-0.162607196300000006
5804540000	-0.32395780930000001	-0.159669255199999999
5804590000	-0.326360877900000013	-0.156270741800000001
5804640000	-0.327215769200000006	-0.152779709300000011
5804690000	-0.329857486899999996	-0.147426576700000006
5804740000	-0.333627652399999974	-0.145542796299999999
5804790000	-0.332685689700000009	-0.139497567200000006
5804840000	-0.332934536700000006	-0.134824587699999998
5804890000	-0.337266561899999984	-0.129416524700000007
5804940000	-0.337157621299999988	-0.126086270499999986
5804990000	-0.338362630100000006	-0.122476219999999997
5805040000	-0.341697909099999975	-0.116912537499999997
5805090000	-0.342800804199999976	-0.114224195299999998
5805140000	-0.344039387500000016	-0.108857946299999994
5805190000	-0.345730961999999975	-0.105425812600000002
5805240000	-0.347657473900000014	-0.0988735607000000016
5805290000	-0.348172557900000013	-0.0956799254000000043
5805340000	-0.348751312599999974	-0.0905165121000000017
5805390000	-0.350306934199999975	-0.084091279300000002
5805440000	-0.353174368199999977	-0.0819066851000000012
5805490000	-0.35391916109999999	-0.0784244345000000009
5805540000	-0.356090861799999991	-0.0718251897999999944
5805590000	-0.352275371100000012	-0.0670252753000000062
5805640000	-0.357168575400000021	-0.0608741159999999989
5805690000	-0.357509939700000001	-0.0565747233999999988
5805740000	-0.358818062599999987	-0.0518410273000000019
5805790000	-0.358461954999999999	-0.0481403310000000015
5805840000	-0.358543569100000015	-0.0444829050999999975
5805890000	-0.361381724899999979	-0.0382965753999999978
5805940000	-0.360090930300000001	-0.0328786880000000031
